#    LAMBDA     FLUX
3199.07 1.1412975986745017E-13 1.0
3209.85 1.1323962413725778E-13 1.0
3220.62 1.1235860898486681E-13 1.0
3231.39 1.1148696566586408E-13 1.0
3242.17 1.1062396553904783E-13 1.0
3252.94 1.0976998548779827E-13 1.0
3263.71 1.0892466119151452E-13 1.0
3274.48 1.0808810571521065E-13 1.0
3285.26 1.0725997986384446E-13 1.0
3296.03 1.0643993187959439E-13 1.0
3306.8 1.0562772306965298E-13 1.0
3317.57 1.0482357328265872E-13 1.0
3322.12 1.0448673376158351E-13 1.0
3331.21 1.0381772807334788E-13 1.0
3349.4 1.0249609227974737E-13 1.0
3367.58 1.0119610843634073E-13 1.0
3385.77 9.991729915751301E-14 1.0
3403.96 9.86596644432642E-14 1.0
3422.14 9.74227394707587E-14 1.0
3440.33 9.620558831293563E-14 1.0
3445.17 9.58852437211349E-14 1.0
3454.84 9.524946658425569E-14 1.0
3474.2 9.399487206260735E-14 1.0
3493.55 9.276157773333135E-14 1.0
3512.9 9.154922555721646E-14 1.0
3532.25 9.035757684145521E-14 1.0
3545.62 8.953109043279298E-14 1.0
3559 8.872847330487828E-14 1.0
3572.37 8.793474434334719E-14 1.0
3585.74 8.71499098295894E-14 1.0
3599.11 8.633371233720729E-14 1.0
3612.48 8.555122078179656E-14 1.0
3625.85 8.478252943949169E-14 1.0
3639.22 8.401500643566551E-14 1.0
3646.08 8.362493213713367E-14 1.0
3646.18 8.33044681989292E-14 1.0
3646.68 8.328434262642524E-14 1.0
3646.96 8.327311150169457E-14 1.0
3647.52 8.325041684081541E-14 1.0
3648.64 8.320525364908524E-14 1.0
3648.96 8.319238308165058E-14 1.0
3658.96 8.276603375777219E-14 1.0
3660.9 8.268541840274227E-14 1.0
3664.78 8.252021785441074E-14 1.0
3672.55 8.212335337364521E-14 1.0
3675.62 8.19857595329151E-14 1.0
3681.5 8.171373767184875E-14 1.0
3687.39 8.144405248773979E-14 1.0
3693.27 8.115681710089174E-14 1.0
3699.16 8.08534322612011E-14 1.0
3703.85 8.059486513680875E-14 1.0
3705.04 8.053484645850808E-14 1.0
3707.43 8.041269855497748E-14 1.0
3710.93 8.02196463248474E-14 1.0
3711.97 8.016418793544745E-14 1.0
3714.05 8.007292562492621E-14 1.0
3716.82 7.994376140913377E-14 1.0
3721.94 7.966436519659438E-14 1.0
3722.7 7.963920823096443E-14 1.0
3724.23 7.960048346364641E-14 1.0
3727.28 7.950243725228114E-14 1.0
3728.59 7.944627534723809E-14 1.0
3731.2 7.929850565524193E-14 1.0
3734.37 7.911341194582426E-14 1.0
3734.47 7.911095592246312E-14 1.0
3734.68 7.910790944847299E-14 1.0
3735.1 7.910732527923364E-14 1.0
3735.93 7.911364435724206E-14 1.0
3737.59 7.912347473207624E-14 1.0
3740.36 7.910182906327204E-14 1.0
3745.89 7.881143413741977E-14 1.0
3746.24 7.877984502876734E-14 1.0
3746.95 7.871677987647652E-14 1.0
3747.72 7.864564313845923E-14 1.0
3749.19 7.851717615692022E-14 1.0
3749.55 7.848980186073662E-14 1.0
3749.92 7.846979563463639E-14 1.0
3750.01 7.846710091846778E-14 1.0
3750.11 7.846570016857129E-14 1.0
3750.13 7.846558082216755E-14 1.0
3750.15 7.846546775715349E-14 1.0
3750.18 7.846546775715349E-14 1.0
3750.2 7.846546775715349E-14 1.0
3750.25 7.846570016857129E-14 1.0
3750.29 7.846628433781063E-14 1.0
3750.37 7.846827553833616E-14 1.0
3750.38 7.846850794975396E-14 1.0
3750.43 7.847014739245793E-14 1.0
3750.48 7.847201924657971E-14 1.0
3750.53 7.847435592353709E-14 1.0
3750.58 7.847681194689823E-14 1.0
3750.63 7.847950666306682E-14 1.0
3750.68 7.848231444424949E-14 1.0
3750.73 7.84854739832537E-14 1.0
3750.75 7.848652297532866E-14 1.0
3750.8 7.848968251433288E-14 1.0
3750.85 7.849272898832301E-14 1.0
3750.9 7.849576918092349E-14 1.0
3750.95 7.84989287199277E-14 1.0
3751 7.850220132394598E-14 1.0
3751.05 7.850548020935393E-14 1.0
3751.1 7.850875281337221E-14 1.0
3751.12 7.850992743324057E-14 1.0
3751.17 7.851343244867665E-14 1.0
3751.22 7.851694374550241E-14 1.0
3751.27 7.852022263091035E-14 1.0
3751.32 7.852396633915392E-14 1.0
3751.37 7.852771004739748E-14 1.0
3751.42 7.853133440923729E-14 1.0
3751.47 7.853484570606305E-14 1.0
3751.52 7.853858941430661E-14 1.0
3751.57 7.85422200575361E-14 1.0
3751.62 7.854572507297218E-14 1.0
3751.67 7.854923636979794E-14 1.0
3751.72 7.855298007804149E-14 1.0
3751.77 7.855684313268879E-14 1.0
3751.82 7.856069990594642E-14 1.0
3751.87 7.856444989557965E-14 1.0
3751.92 7.856807425741947E-14 1.0
3751.97 7.857181796566302E-14 1.0
3752.02 7.857579408532439E-14 1.0
3752.07 7.857953779356795E-14 1.0
3752.12 7.85832815018115E-14 1.0
3752.17 7.8586912145041E-14 1.0
3752.22 7.859042344186674E-14 1.0
3752.27 7.859428021512437E-14 1.0
3752.32 7.859814326977167E-14 1.0
3752.37 7.860188697801522E-14 1.0
3752.42 7.860563068625879E-14 1.0
3752.47 7.860925504809861E-14 1.0
3752.52 7.861276634492436E-14 1.0
3752.57 7.861615829534637E-14 1.0
3752.59 7.861768467303628E-14 1.0
3752.64 7.862189320411545E-14 1.0
3752.69 7.862598867018055E-14 1.0
3752.74 7.863008413624566E-14 1.0
3752.79 7.863406025590702E-14 1.0
3752.84 7.863792331055431E-14 1.0
3752.89 7.864166701879788E-14 1.0
3752.94 7.864529138063769E-14 1.0
3752.99 7.864892202386719E-14 1.0
3753.04 7.865266573211075E-14 1.0
3753.09 7.865629009395056E-14 1.0
3753.14 7.865968204437258E-14 1.0
3753.19 7.866319334119834E-14 1.0
3753.24 7.866647222660628E-14 1.0
3753.29 7.866974483062455E-14 1.0
3753.34 7.867290436962877E-14 1.0
3753.39 7.867595084361892E-14 1.0
3753.44 7.867899103621939E-14 1.0
3753.49 7.868238298664141E-14 1.0
3753.54 7.868589428346716E-14 1.0
3753.59 7.868940558029291E-14 1.0
3753.64 7.869279753071493E-14 1.0
3753.69 7.869654123895848E-14 1.0
3753.74 7.870028494720205E-14 1.0
3753.79 7.870390930904187E-14 1.0
3753.84 7.870823718652477E-14 1.0
3753.89 7.871163541833646E-14 1.0
3753.94 7.871514043377254E-14 1.0
3753.99 7.871853866558423E-14 1.0
3754.04 7.872228237382779E-14 1.0
3754.06 7.872380247012802E-14 1.0
3754.11 7.872765924338565E-14 1.0
3754.16 7.873140295162921E-14 1.0
3754.21 7.87350335948587E-14 1.0
3754.26 7.873865795669852E-14 1.0
3754.31 7.8742288599928E-14 1.0
3754.36 7.874568055035002E-14 1.0
3754.41 7.874907250077204E-14 1.0
3754.46 7.875235138618E-14 1.0
3754.51 7.875562399019827E-14 1.0
3754.56 7.875878352920247E-14 1.0
3754.61 7.876182372180295E-14 1.0
3754.66 7.87648701957931E-14 1.0
3754.71 7.876791038839357E-14 1.0
3754.76 7.877083751597998E-14 1.0
3754.81 7.877375836217671E-14 1.0
3754.86 7.877656614335938E-14 1.0
3754.91 7.877937392454205E-14 1.0
3754.96 7.878206864071066E-14 1.0
3755.01 7.878464401047552E-14 1.0
3755.06 7.878721309885071E-14 1.0
3755.11 7.878978846861557E-14 1.0
3755.16 7.879213142696263E-14 1.0
3755.21 7.879446810392002E-14 1.0
3755.26 7.879669171586334E-14 1.0
3755.31 7.879879598140293E-14 1.0
3755.36 7.880090652833219E-14 1.0
3755.41 7.880324320528957E-14 1.0
3755.46 7.880605098647224E-14 1.0
3755.51 7.880885876765491E-14 1.0
3755.56 7.881143413741977E-14 1.0
3755.61 7.881400950718464E-14 1.0
3755.66 7.881646553054576E-14 1.0
3755.71 7.881892155390689E-14 1.0
3755.76 7.882126451225395E-14 1.0
3755.81 7.882360118921134E-14 1.0
3755.86 7.882582480115466E-14 1.0
3755.91 7.882792906669424E-14 1.0
3755.96 7.88300396136235E-14 1.0
3756.01 7.883202453275935E-14 1.0
3756.06 7.883401573328487E-14 1.0
3756.11 7.883600693381038E-14 1.0
3756.16 7.883787878793216E-14 1.0
3756.21 7.88396312956502E-14 1.0
3756.26 7.884150314977198E-14 1.0
3756.31 7.884314259247595E-14 1.0
3756.36 7.8844895100194E-14 1.0
3756.41 7.884653454289797E-14 1.0
3756.46 7.884805463919821E-14 1.0
3756.51 7.884946167048438E-14 1.0
3756.56 7.885086242038088E-14 1.0
3756.61 7.885226945166705E-14 1.0
3756.66 7.885355713654947E-14 1.0
3756.71 7.885472547502817E-14 1.0
3756.76 7.885577446710313E-14 1.0
3756.81 7.885682974056775E-14 1.0
3756.86 7.885788501403238E-14 1.0
3756.91 7.885882094109327E-14 1.0
3756.96 7.885963752175042E-14 1.0
3757.01 7.886045410240757E-14 1.0
3757.06 7.886115761805066E-14 1.0
3757.11 7.886186113369374E-14 1.0
3757.16 7.886244530293309E-14 1.0
3757.21 7.886291640715837E-14 1.0
3757.23 7.886302947217244E-14 1.0
3757.27 7.886350057639772E-14 1.0
3757.32 7.88642040920408E-14 1.0
3757.38 7.886478826128015E-14 1.0
3757.43 7.886525308411576E-14 1.0
3757.48 7.886572418834104E-14 1.0
3757.52 7.886607594616259E-14 1.0
3757.57 7.886642142259446E-14 1.0
3757.62 7.886666011540194E-14 1.0
3757.68 7.886689252681974E-14 1.0
3757.73 7.886701187322347E-14 1.0
3757.78 7.886712493823755E-14 1.0
3757.83 7.886712493823755E-14 1.0
3757.88 7.886701187322347E-14 1.0
3757.93 7.886689252681974E-14 1.0
3757.98 7.886666011540194E-14 1.0
3758.03 7.886630835758039E-14 1.0
3758.08 7.886595659975885E-14 1.0
3758.13 7.88656048419373E-14 1.0
3758.18 7.886490132629421E-14 1.0
3758.23 7.886408474563707E-14 1.0
3758.28 7.886314881857618E-14 1.0
3758.33 7.886221289151528E-14 1.0
3758.38 7.88612769644544E-14 1.0
3758.43 7.88601086259757E-14 1.0
3758.48 7.885928576392887E-14 1.0
3758.53 7.885870159468954E-14 1.0
3758.58 7.885811742545019E-14 1.0
3758.63 7.88574139098071E-14 1.0
3758.68 7.885659732914995E-14 1.0
3758.73 7.885577446710313E-14 1.0
3758.78 7.885483854004224E-14 1.0
3758.83 7.885378954796728E-14 1.0
3758.88 7.885273427450266E-14 1.0
3758.93 7.885156593602396E-14 1.0
3758.98 7.885039759754526E-14 1.0
3759.03 7.884910991266283E-14 1.0
3759.08 7.884770288137667E-14 1.0
3759.13 7.884618278507642E-14 1.0
3759.18 7.884466268877619E-14 1.0
3759.23 7.884302324607221E-14 1.0
3759.28 7.884138380336824E-14 1.0
3759.33 7.883951194924646E-14 1.0
3759.38 7.883775944152842E-14 1.0
3759.43 7.88357682410029E-14 1.0
3759.48 7.883378332186706E-14 1.0
3759.53 7.88316727749378E-14 1.0
3759.58 7.882944916299449E-14 1.0
3759.63 7.882723183244083E-14 1.0
3759.68 7.882488887409377E-14 1.0
3759.73 7.882254591574671E-14 1.0
3759.78 7.882008989238558E-14 1.0
3759.83 7.88175208040104E-14 1.0
3759.88 7.881482608784179E-14 1.0
3759.93 7.881225071807693E-14 1.0
3759.98 7.881049821035888E-14 1.0
3760.03 7.88086263562371E-14 1.0
3760.08 7.880675450211533E-14 1.0
3760.13 7.880476330158981E-14 1.0
3760.18 7.880277838245396E-14 1.0
3760.23 7.88006678355247E-14 1.0
3760.28 7.879868291638887E-14 1.0
3760.33 7.879645930444553E-14 1.0
3760.38 7.879423569250221E-14 1.0
3760.39 7.879365152326286E-14 1.0
3760.44 7.879142791131954E-14 1.0
3760.49 7.878908495297248E-14 1.0
3760.54 7.878662892961136E-14 1.0
3760.59 7.878417290625024E-14 1.0
3760.64 7.878148447147131E-14 1.0
3760.69 7.877890910170644E-14 1.0
3760.74 7.877621438553784E-14 1.0
3760.79 7.877340660435517E-14 1.0
3760.84 7.87705988231725E-14 1.0
3760.89 7.876767797697577E-14 1.0
3760.94 7.876475084938936E-14 1.0
3760.99 7.876159131038514E-14 1.0
3761.04 7.875855111778467E-14 1.0
3761.09 7.875527223237673E-14 1.0
3761.14 7.875211269337251E-14 1.0
3761.19 7.87487207429505E-14 1.0
3761.24 7.874532879252848E-14 1.0
3761.29 7.874181749570273E-14 1.0
3761.34 7.873830619887697E-14 1.0
3761.39 7.873468183703715E-14 1.0
3761.44 7.873105747519734E-14 1.0
3761.49 7.872742683196784E-14 1.0
3761.54 7.872380247012802E-14 1.0
3761.59 7.872005876188447E-14 1.0
3761.64 7.87163150536409E-14 1.0
3761.69 7.871245199899362E-14 1.0
3761.74 7.870847587933225E-14 1.0
3761.79 7.870438041326714E-14 1.0
3761.84 7.870028494720205E-14 1.0
3761.89 7.869607013473321E-14 1.0
3761.94 7.86917422572503E-14 1.0
3761.99 7.868975105672478E-14 1.0
3762.04 7.868519076782408E-14 1.0
3762.09 7.868063047892336E-14 1.0
3762.14 7.867595084361892E-14 1.0
3762.19 7.86712649269248E-14 1.0
3762.24 7.866635288020255E-14 1.0
3762.29 7.866144083348029E-14 1.0
3762.34 7.86564094403543E-14 1.0
3762.39 7.865137804722831E-14 1.0
3762.44 7.864611424268452E-14 1.0
3762.49 7.864085043814072E-14 1.0
3762.54 7.863546728719319E-14 1.0
3762.59 7.862996478984192E-14 1.0
3762.64 7.862434922747658E-14 1.0
3762.69 7.861862060009717E-14 1.0
3762.74 7.86128856913281E-14 1.0
3762.79 7.860797364460585E-14 1.0
3762.84 7.860305531649392E-14 1.0
3762.89 7.859814326977167E-14 1.0
3762.94 7.859311187664569E-14 1.0
3762.99 7.858796113711596E-14 1.0
3763.04 7.858281667897589E-14 1.0
3763.09 7.85775528744321E-14 1.0
3763.14 7.857216972348456E-14 1.0
3763.19 7.856678657253703E-14 1.0
3763.24 7.856117101017169E-14 1.0
3763.29 7.855555544780635E-14 1.0
3763.34 7.854993988544102E-14 1.0
3763.39 7.854420497667195E-14 1.0
3763.44 7.853835700288881E-14 1.0
3763.49 7.853238968270192E-14 1.0
3763.54 7.852642236251504E-14 1.0
3763.54 7.852595125828977E-14 1.0
3763.59 7.851987087308882E-14 1.0
3763.65 7.851367114148413E-14 1.0
3763.7 7.850746512848977E-14 1.0
3763.75 7.850103298546729E-14 1.0
3763.8 7.84946008424448E-14 1.0
3763.85 7.84880430716289E-14 1.0
3763.9 7.848196268642796E-14 1.0
3763.95 7.847622777765888E-14 1.0
3764 7.847037980387574E-14 1.0
3764.05 7.846441248368885E-14 1.0
3764.1 7.845832581709823E-14 1.0
3764.15 7.845224543189728E-14 1.0
3764.2 7.844592635388887E-14 1.0
3764.25 7.843960727588044E-14 1.0
3764.3 7.843317513285795E-14 1.0
3764.35 7.84267367084458E-14 1.0
3764.4 7.842006587261584E-14 1.0
3764.45 7.841340131817554E-14 1.0
3764.5 7.840661113594184E-14 1.0
3764.55 7.839970788869406E-14 1.0
3764.6 7.839269157643223E-14 1.0
3764.65 7.838566898278072E-14 1.0
3764.7 7.837841397771141E-14 1.0
3764.75 7.837116525403176E-14 1.0
3764.8 7.836379090255871E-14 1.0
3764.85 7.83563034860716E-14 1.0
3764.9 7.834858365816668E-14 1.0
3764.95 7.834062513745428E-14 1.0
3765 7.833267289813156E-14 1.0
3765.05 7.832448196600136E-14 1.0
3765.1 7.831617168746742E-14 1.0
3765.15 7.830786769032315E-14 1.0
3765.2 7.82993250003714E-14 1.0
3765.25 7.829078231041965E-14 1.0
3765.3 7.82820072090501E-14 1.0
3765.35 7.827323210768056E-14 1.0
3765.4 7.826422459489321E-14 1.0
3765.45 7.825521708210585E-14 1.0
3765.5 7.824597087651103E-14 1.0
3765.55 7.823673095230587E-14 1.0
3765.6 7.822725233529324E-14 1.0
3765.65 7.821766065326653E-14 1.0
3765.7 7.820970213255413E-14 1.0
3765.75 7.820198230464922E-14 1.0
3765.8 7.819414313034056E-14 1.0
3765.85 7.818618460962816E-14 1.0
3765.9 7.817823237030544E-14 1.0
3765.95 7.817004143817523E-14 1.0
3766 7.816185050604503E-14 1.0
3766.05 7.815354022751109E-14 1.0
3766.1 7.814500381894902E-14 1.0
3766.15 7.813646112899727E-14 1.0
3766.2 7.812768602762772E-14 1.0
3766.25 7.811891092625818E-14 1.0
3766.3 7.811001647848489E-14 1.0
3766.35 7.810100896569753E-14 1.0
3766.4 7.809223386432798E-14 1.0
3766.45 7.808357810936218E-14 1.0
3766.5 7.807480300799263E-14 1.0
3766.55 7.806579549520527E-14 1.0
3766.6 7.805678170102825E-14 1.0
3766.65 7.804766112322683E-14 1.0
3766.7 7.803829557122825E-14 1.0
3766.7 7.803795009479638E-14 1.0
3766.75 7.802847147778376E-14 1.0
3766.8 7.801887351436739E-14 1.0
3766.85 7.800916248593694E-14 1.0
3766.9 7.799933839249244E-14 1.0
3766.95 7.798927560624045E-14 1.0
3767 7.797968392421376E-14 1.0
3767.05 7.79703183722152E-14 1.0
3767.1 7.79609591016063E-14 1.0
3767.15 7.795136741957959E-14 1.0
3767.2 7.794165639114916E-14 1.0
3767.25 7.793182601631498E-14 1.0
3767.3 7.792176323006299E-14 1.0
3767.35 7.791146803239321E-14 1.0
3767.4 7.790105976970936E-14 1.0
3767.45 7.78905258792321E-14 1.0
3767.5 7.788011133515858E-14 1.0
3767.55 7.787110382237122E-14 1.0
3767.6 7.786186389816606E-14 1.0
3767.65 7.785261769257124E-14 1.0
3767.7 7.784313907555861E-14 1.0
3767.75 7.78335473935319E-14 1.0
3767.8 7.782371701869773E-14 1.0
3767.85 7.781377357884948E-14 1.0
3767.9 7.78037107925975E-14 1.0
3767.95 7.779364800634552E-14 1.0
3768 7.778370456649727E-14 1.0
3768.05 7.777352871523123E-14 1.0
3768.1 7.776346592897925E-14 1.0
3768.15 7.775317073130946E-14 1.0
3768.18 7.774720341112259E-14 1.0
3768.24 7.773514942434508E-14 1.0
3768.35 7.77113994900013E-14 1.0
3768.58 7.76676433295573E-14 1.0
3769.04 7.7579659904444E-14 1.0
3769.66 7.746604840947548E-14 1.0
3770.03 7.740626214259262E-14 1.0
3770.4 7.73622735707308E-14 1.0
3770.49 7.735607383912612E-14 1.0
3770.58 7.735209143807509E-14 1.0
3770.61 7.735209143807509E-14 1.0
3770.63 7.735197837306101E-14 1.0
3770.65 7.73529143001219E-14 1.0
3770.68 7.735373088077906E-14 1.0
3770.73 7.735735524261888E-14 1.0
3770.77 7.736086653944463E-14 1.0
3770.85 7.736964164081418E-14 1.0
3770.86 7.737022581005353E-14 1.0
3770.91 7.737631247664415E-14 1.0
3770.96 7.738298331247411E-14 1.0
3771.01 7.739011897113968E-14 1.0
3771.06 7.739748704122306E-14 1.0
3771.11 7.740544556193546E-14 1.0
3771.16 7.741386890548347E-14 1.0
3771.21 7.74224115954352E-14 1.0
3771.23 7.742603595727503E-14 1.0
3771.28 7.743516281646612E-14 1.0
3771.33 7.744440902206095E-14 1.0
3771.38 7.745400070408765E-14 1.0
3771.43 7.746347932110028E-14 1.0
3771.48 7.747330341454479E-14 1.0
3771.53 7.748301444297523E-14 1.0
3771.58 7.749307722922722E-14 1.0
3771.6 7.749717269529231E-14 1.0
3771.65 7.750735482794803E-14 1.0
3771.7 7.751729826779627E-14 1.0
3771.75 7.752841004612322E-14 1.0
3771.8 7.753917634801827E-14 1.0
3771.85 7.754982330350961E-14 1.0
3771.9 7.756047025900094E-14 1.0
3771.95 7.757146897231381E-14 1.0
3772 7.75822289928192E-14 1.0
3772.05 7.759299529471427E-14 1.0
3772.1 7.76038746616234E-14 1.0
3772.15 7.761580930199715E-14 1.0
3772.2 7.762751153095311E-14 1.0
3772.25 7.763909441350533E-14 1.0
3772.3 7.765044488463974E-14 1.0
3772.35 7.766190842078822E-14 1.0
3772.4 7.767372371475824E-14 1.0
3772.45 7.768530659731046E-14 1.0
3772.5 7.769665706844487E-14 1.0
3772.55 7.770788819317554E-14 1.0
3772.6 7.771888690648842E-14 1.0
3772.65 7.773070220045844E-14 1.0
3772.7 7.774252377581813E-14 1.0
3772.75 7.775421972338442E-14 1.0
3772.8 7.776580260593664E-14 1.0
3772.85 7.777715307707105E-14 1.0
3772.9 7.778827113678765E-14 1.0
3772.95 7.779985401933987E-14 1.0
3773 7.781260524037079E-14 1.0
3773.05 7.78251240499839E-14 1.0
3773.08 7.783225970864946E-14 1.0
3773.14 7.784618554954874E-14 1.0
3773.25 7.787344678071828E-14 1.0
3773.48 7.792656221177119E-14 1.0
3773.94 7.803034333190553E-14 1.0
3774.56 7.817331404219351E-14 1.0
3775.81 7.843761607535493E-14 1.0
3778.3 7.884021546488954E-14 1.0
3779.41 7.896013975647682E-14 1.0
3781.64 7.905186688983367E-14 1.0
3784.26 7.900074265930629E-14 1.0
3786.68 7.864833785462784E-14 1.0
3789.1 7.808965849456313E-14 1.0
3789.15 7.80764424506966E-14 1.0
3789.2 7.80629877140226E-14 1.0
3789.25 7.804941363094487E-14 1.0
3789.3 7.803572648285306E-14 1.0
3789.35 7.802191998835752E-14 1.0
3789.4 7.800788108244418E-14 1.0
3789.45 7.79937228301271E-14 1.0
3789.5 7.797933216639222E-14 1.0
3789.55 7.796482215625359E-14 1.0
3789.6 7.79501990811009E-14 1.0
3789.65 7.793533731314073E-14 1.0
3789.7 7.792188257646673E-14 1.0
3789.75 7.790854718619648E-14 1.0
3789.8 7.789509244952248E-14 1.0
3789.85 7.788163771284848E-14 1.0
3789.9 7.786783121835294E-14 1.0
3789.95 7.78540247238574E-14 1.0
3790 7.784009888295813E-14 1.0
3790.05 7.782594063064105E-14 1.0
3790.1 7.781178865971364E-14 1.0
3790.15 7.779739799597875E-14 1.0
3790.2 7.778288798584013E-14 1.0
3790.25 7.77681455642837E-14 1.0
3790.3 7.775317073130946E-14 1.0
3790.35 7.773807655193149E-14 1.0
3790.4 7.772274996113572E-14 1.0
3790.45 7.770719095892213E-14 1.0
3790.5 7.769127391749733E-14 1.0
3790.55 7.767525009244815E-14 1.0
3790.6 7.765898129320181E-14 1.0
3790.65 7.764271877534514E-14 1.0
3790.7 7.762610449966695E-14 1.0
3790.75 7.760949022398874E-14 1.0
3790.8 7.759264353689272E-14 1.0
3790.85 7.757567750339297E-14 1.0
3790.9 7.755847905847541E-14 1.0
3790.95 7.754104820214006E-14 1.0
3791 7.752361734580469E-14 1.0
3791.05 7.750594779666186E-14 1.0
3791.1 7.748804583610121E-14 1.0
3791.15 7.747014387554058E-14 1.0
3791.2 7.745236126138368E-14 1.0
3791.25 7.743434623580897E-14 1.0
3791.3 7.741621186383053E-14 1.0
3791.35 7.739783879904461E-14 1.0
3791.4 7.737947201564835E-14 1.0
3791.45 7.736063412802682E-14 1.0
3791.5 7.734156382898749E-14 1.0
3791.55 7.732226111853035E-14 1.0
3791.6 7.730271971526574E-14 1.0
3791.65 7.728306524698706E-14 1.0
3791.7 7.72631720859009E-14 1.0
3791.75 7.724316585980068E-14 1.0
3791.8 7.722292722228265E-14 1.0
3791.85 7.720244989195715E-14 1.0
3791.9 7.718185949661757E-14 1.0
3791.95 7.716103040847052E-14 1.0
3792 7.713996890890567E-14 1.0
3792.05 7.711856193290896E-14 1.0
3792.1 7.709691626410476E-14 1.0
3792.15 7.707503818388275E-14 1.0
3792.2 7.705292141085327E-14 1.0
3792.25 7.703069157280972E-14 1.0
3792.3 7.700810997694464E-14 1.0
3792.35 7.698541531606548E-14 1.0
3792.4 7.696260130878259E-14 1.0
3792.45 7.693943554367816E-14 1.0
3792.5 7.691615043216998E-14 1.0
3792.55 7.689251984422994E-14 1.0
